# Time (s),Altitude (m),Vertical velocity (m/s),Vertical acceleration (m/s²),Air temperature (°C),Air pressure (mbar)
# Event IGNITION occurred at t=0 seconds
# Event LAUNCH occurred at t=0 seconds
0.01,0.006,1.209,121.002,5.893,856.09
# Event LIFTOFF occurred at t=0.02 seconds
0.02,0.024,2.419,121.026,5.893,856.088
0.03,0.054,3.629,121.05,5.893,856.085
0.04,0.097,4.839,121.072,5.893,856.08
0.05,0.151,6.049,121.094,5.893,856.075
0.06,0.218,7.26,121.115,5.892,856.068
0.07,0.296,8.471,121.135,5.892,856.059
0.08,0.387,9.682,121.155,5.891,856.05
0.09,0.49,10.893,121.174,5.89,856.039
0.099,0.595,12.005,121.188,5.89,856.027
0.108,0.699,13.014,121.2,5.889,856.016
0.115,0.803,13.945,121.212,5.888,856.005
0.122,0.906,14.814,121.223,5.888,855.994
# Event LAUNCHROD occurred at t=0.129 seconds
0.129,1.009,15.632,121.234,5.887,855.983
0.139,1.173,16.86,121.267,5.886,855.966
0.154,1.443,18.701,121.317,5.884,855.937
0.177,1.901,21.464,121.389,5.881,855.889
0.211,2.705,25.61,121.493,5.876,855.803
0.261,4.137,31.679,121.632,5.867,855.651
0.311,5.873,37.751,121.685,5.855,855.466
0.361,7.912,43.825,121.725,5.842,855.249
0.411,10.255,49.9,121.748,5.827,855
0.461,12.902,55.976,121.749,5.81,854.718
0.511,15.852,62.032,121.31,5.79,854.405
0.561,19.102,67.983,119.199,5.769,854.059
0.611,22.647,73.818,116.866,5.746,853.682
0.661,26.481,79.535,114.483,5.721,853.274
0.711,30.598,85.131,112.048,5.695,852.836
0.761,34.991,90.604,109.566,5.666,852.369
0.811,39.655,95.952,107.048,5.636,851.873
0.861,44.583,101.186,104.736,5.604,851.348
0.911,49.771,106.32,102.738,5.57,850.797
0.961,55.213,111.355,100.769,5.535,850.218
1.011,60.904,116.291,98.83,5.498,849.612
1.061,66.839,121.131,96.904,5.459,848.981
1.111,73.014,125.875,94.991,5.419,848.324
1.161,79.424,130.522,93.054,5.377,847.642
1.211,86.064,135.072,91.062,5.334,846.936
1.261,92.929,139.52,89.022,5.289,846.206
1.311,100.014,143.864,86.931,5.243,845.457
1.359,106.893,147.868,84.878,5.199,844.761
1.409,114.39,152.031,83.199,5.15,844.002
1.459,122.094,156.11,81.495,5.1,843.223
1.509,129.999,160.103,79.763,5.049,842.422
1.559,138.102,164.009,78.052,4.996,841.602
1.609,146.398,167.83,76.376,4.942,840.763
1.655,154.332,171.331,74.817,4.89,839.96
1.705,162.99,174.997,73.333,4.834,839.083
1.755,171.829,178.586,71.774,4.777,838.189
1.805,180.846,182.095,70.141,4.718,837.276
1.855,190.037,185.521,68.468,4.658,836.346
1.902,198.816,188.658,66.78,4.601,835.457
1.952,208.33,191.916,65.057,4.539,834.494
2.002,218.005,195.084,63.273,4.476,833.515
2.052,227.836,198.163,61.493,4.413,832.52
2.102,237.819,201.155,59.792,4.348,831.509
2.152,247.95,204.062,58.11,4.282,830.484
2.202,258.223,206.886,56.453,4.215,829.444
2.252,268.636,209.627,54.761,4.147,828.39
2.302,279.184,212.282,53.042,4.079,827.323
2.352,289.862,214.85,51.299,4.009,826.242
2.402,300.667,217.33,49.502,3.939,825.148
2.452,311.593,219.718,47.686,3.868,824.042
2.502,322.636,222.017,45.898,3.796,822.924
2.552,333.793,224.228,44.188,3.724,821.795
2.602,345.057,226.354,42.488,3.651,820.655
2.652,356.426,228.395,40.787,3.577,819.504
2.702,367.894,230.349,39.014,3.502,818.344
2.752,379.459,232.213,37.213,3.427,817.173
2.802,391.114,233.987,35.412,3.351,815.994
2.852,402.855,235.672,33.659,3.275,814.805
2.902,414.679,237.269,31.906,3.198,813.608
2.952,426.58,238.78,30.21,3.121,812.404
3.002,438.554,240.205,28.477,3.043,811.192
3.052,450.591,241.242,20.68,2.965,809.973
3.102,462.663,241.646,8.07,2.886,808.752
3.152,474.746,241.66,0.277,2.808,807.529
3.202,486.822,241.39,-5.374,2.729,806.306
3.252,498.877,240.839,-10.981,2.651,805.086
3.302,510.899,240.009,-16.531,2.573,803.869
# Event BURNOUT occurred at t=3.35 seconds
3.35,522.334,238.957,-21.944,2.498,802.712
3.4,534.251,237.728,-24.493,2.421,801.506
3.45,546.107,236.509,-24.284,2.344,800.306
3.5,557.902,235.298,-24.129,2.267,799.112
3.55,569.637,234.096,-23.949,2.191,797.924
3.6,581.312,232.903,-23.771,2.115,796.742
3.65,592.927,231.719,-23.611,2.039,795.567
3.7,604.484,230.542,-23.446,1.964,794.424
3.75,615.981,229.375,-23.249,1.89,793.318
3.8,627.421,228.217,-23.066,1.815,792.216
3.85,638.803,227.068,-22.926,1.741,791.121
3.9,650.128,225.924,-22.799,1.668,790.031
3.95,661.396,224.788,-22.669,1.594,788.946
4,672.607,223.658,-22.52,1.522,787.867
4.05,683.762,222.535,-22.362,1.449,786.793
4.1,694.861,221.422,-22.158,1.377,785.725
4.15,705.904,220.319,-21.976,1.305,784.662
4.2,716.893,219.224,-21.848,1.234,783.604
4.25,727.827,218.135,-21.734,1.163,782.552
4.3,738.706,217.05,-21.627,1.092,781.505
4.35,749.532,215.971,-21.525,1.022,780.463
4.4,760.304,214.898,-21.386,0.952,779.426
4.45,771.022,213.834,-21.203,0.882,778.394
4.5,781.687,212.778,-21.017,0.813,777.368
4.55,792.3,211.731,-20.878,0.744,776.346
4.6,802.86,210.69,-20.764,0.675,775.33
4.65,813.369,209.654,-20.672,0.607,774.318
4.7,823.826,208.623,-20.582,0.539,773.312
4.75,834.231,207.596,-20.478,0.471,772.31
4.8,844.585,206.575,-20.355,0.404,771.314
4.85,854.889,205.561,-20.193,0.337,770.322
4.9,865.142,204.556,-20.024,0.27,769.335
4.95,875.345,203.558,-19.899,0.204,768.353
5,885.498,202.566,-19.782,0.138,767.376
5.05,895.601,201.579,-19.711,0.072,766.403
5.1,905.656,200.596,-19.619,0.007,765.435
5.15,915.661,199.617,-19.511,-0.058,764.472
5.2,925.618,198.644,-19.409,-0.123,763.514
5.25,935.526,197.676,-19.309,-0.187,762.56
5.3,945.385,196.714,-19.169,-0.252,761.611
5.35,955.197,195.759,-19.04,-0.315,760.667
5.4,964.961,194.81,-18.916,-0.379,759.727
5.45,974.678,193.867,-18.823,-0.442,758.792
5.5,984.348,192.929,-18.718,-0.505,757.861
5.55,993.971,191.994,-18.65,-0.567,756.935
5.6,1003.548,191.064,-18.568,-0.63,756.013
5.65,1013.078,190.137,-18.487,-0.692,755.096
5.7,1022.561,189.216,-18.365,-0.753,754.183
5.75,1031.999,188.3,-18.261,-0.814,753.274
5.8,1041.392,187.39,-18.165,-0.876,752.37
5.85,1050.738,186.484,-18.064,-0.936,751.471
5.9,1060.04,185.583,-17.961,-0.997,750.575
5.95,1069.297,184.688,-17.86,-1.057,749.684
6,1078.509,183.797,-17.772,-1.117,748.798
6.05,1087.677,182.911,-17.694,-1.176,747.915
6.1,1096.8,182.028,-17.613,-1.236,747.037
6.15,1105.879,181.149,-17.551,-1.295,746.196
6.2,1114.915,180.273,-17.465,-1.353,745.369
6.25,1123.907,179.402,-17.393,-1.412,744.547
6.3,1132.855,178.534,-17.303,-1.47,743.728
6.35,1141.76,177.671,-17.21,-1.528,742.914
6.4,1150.622,176.814,-17.102,-1.586,742.103
6.45,1159.442,175.961,-17.014,-1.643,741.296
6.5,1168.219,175.112,-16.931,-1.7,740.493
6.55,1176.953,174.268,-16.836,-1.757,739.694
6.6,1185.645,173.429,-16.754,-1.813,738.899
6.65,1194.296,172.592,-16.694,-1.869,738.108
6.7,1202.905,171.759,-16.645,-1.925,737.32
6.75,1211.472,170.928,-16.608,-1.981,736.536
6.8,1219.998,170.098,-16.562,-2.036,735.756
6.85,1228.482,169.271,-16.498,-2.092,734.98
6.9,1236.925,168.45,-16.375,-2.147,734.208
6.95,1245.327,167.634,-16.268,-2.201,733.439
7,1253.688,166.823,-16.17,-2.255,732.674
7.05,1262.009,166.017,-16.076,-2.31,731.913
7.1,1270.29,165.215,-16.015,-2.363,731.156
7.15,1278.531,164.415,-15.955,-2.417,730.402
7.2,1286.732,163.619,-15.917,-2.47,729.652
7.25,1294.893,162.823,-15.894,-2.523,728.905
7.3,1303.014,162.03,-15.842,-2.576,728.162
7.35,1311.096,161.239,-15.771,-2.629,727.423
7.4,1319.138,160.452,-15.708,-2.681,726.687
7.45,1327.141,159.67,-15.6,-2.733,725.955
7.5,1335.105,158.892,-15.521,-2.785,725.226
7.55,1343.03,158.117,-15.453,-2.836,724.501
7.6,1350.917,157.346,-15.383,-2.887,723.78
7.65,1358.765,156.579,-15.328,-2.938,723.062
7.7,1366.575,155.813,-15.289,-2.989,722.348
7.75,1374.346,155.05,-15.251,-3.04,721.637
7.8,1382.08,154.289,-15.193,-3.09,720.929
7.85,1389.775,153.531,-15.122,-3.14,720.225
7.9,1397.433,152.776,-15.058,-3.19,719.525
7.95,1405.053,152.024,-15.008,-3.239,718.828
8,1412.635,151.276,-14.938,-3.289,718.134
8.05,1420.18,150.531,-14.875,-3.338,717.444
8.1,1427.688,149.789,-14.804,-3.386,716.757
8.15,1435.159,149.05,-14.736,-3.435,716.073
8.2,1442.593,148.315,-14.676,-3.483,715.393
8.25,1449.991,147.582,-14.64,-3.531,714.717
8.3,1457.352,146.851,-14.615,-3.579,714.043
8.35,1464.676,146.121,-14.586,-3.627,713.373
8.4,1471.964,145.392,-14.542,-3.674,712.707
8.45,1479.215,144.666,-14.495,-3.721,712.043
8.5,1486.43,143.943,-14.438,-3.768,711.383
8.55,1493.61,143.223,-14.357,-3.815,710.726
8.6,1500.753,142.507,-14.285,-3.861,710.073
8.65,1507.86,141.794,-14.221,-3.908,709.423
8.7,1514.932,141.085,-14.161,-3.954,708.776
8.75,1521.969,140.378,-14.111,-3.999,708.132
8.8,1528.97,139.674,-14.07,-4.045,707.492
8.85,1535.936,138.971,-14.039,-4.09,706.854
8.9,1542.867,138.27,-14.002,-4.135,706.22
8.95,1549.763,137.57,-13.99,-4.18,705.59
9,1556.624,136.872,-13.954,-4.225,704.962
9.05,1563.45,136.175,-13.908,-4.269,704.337
9.1,1570.242,135.481,-13.835,-4.313,703.716
9.15,1576.999,134.791,-13.783,-4.357,703.098
9.2,1583.721,134.104,-13.705,-4.401,702.483
9.25,1590.409,133.42,-13.651,-4.444,701.871
9.3,1597.063,132.739,-13.602,-4.487,701.263
9.35,1603.683,132.059,-13.579,-4.53,700.678
9.4,1610.269,131.381,-13.541,-4.573,700.106
9.45,1616.821,130.704,-13.53,-4.616,699.537
9.5,1623.339,130.028,-13.504,-4.658,698.971
9.55,1629.824,129.354,-13.489,-4.7,698.407
9.6,1636.275,128.68,-13.434,-4.742,697.847
9.65,1642.692,128.01,-13.379,-4.784,697.289
9.7,1649.076,127.343,-13.307,-4.825,696.734
9.75,1655.426,126.679,-13.24,-4.867,696.183
9.8,1661.744,126.019,-13.196,-4.908,695.634
9.85,1668.028,125.36,-13.159,-4.949,695.088
9.9,1674.28,124.703,-13.12,-4.989,694.544
9.95,1680.499,124.048,-13.078,-5.03,694.004
10,1686.685,123.394,-13.063,-5.07,693.467
10.05,1692.838,122.741,-13.053,-5.11,692.932
10.1,1698.959,122.09,-13.015,-5.15,692.4
10.15,1705.047,121.439,-12.991,-5.189,691.871
10.2,1711.103,120.791,-12.943,-5.229,691.345
10.25,1717.126,120.145,-12.917,-5.268,690.821
10.3,1723.117,119.499,-12.887,-5.307,690.301
10.35,1729.076,118.856,-12.848,-5.345,689.783
10.4,1735.003,118.215,-12.788,-5.384,689.268
10.45,1740.898,117.577,-12.728,-5.422,688.756
10.5,1746.761,116.942,-12.677,-5.46,688.247
10.55,1752.592,116.31,-12.625,-5.498,687.74
10.6,1758.392,115.679,-12.605,-5.536,687.236
10.65,1764.16,115.049,-12.58,-5.574,686.735
10.7,1769.897,114.421,-12.561,-5.611,686.236
10.75,1775.602,113.793,-12.556,-5.648,685.741
10.8,1781.276,113.166,-12.539,-5.685,685.248
10.85,1786.919,112.539,-12.511,-5.721,684.757
10.9,1792.53,111.914,-12.492,-5.758,684.27
10.95,1798.11,111.29,-12.481,-5.794,683.785
11,1803.659,110.667,-12.439,-5.83,683.303
11.05,1809.177,110.046,-12.391,-5.866,682.823
11.1,1814.663,109.428,-12.339,-5.902,682.347
11.15,1820.119,108.812,-12.3,-5.937,681.872
11.2,1825.545,108.198,-12.265,-5.973,681.401
11.25,1830.939,107.585,-12.222,-6.008,680.932
11.3,1836.303,106.976,-12.176,-6.042,680.466
11.35,1841.637,106.368,-12.137,-6.077,680.003
11.4,1846.94,105.761,-12.114,-6.112,679.542
11.45,1852.213,105.156,-12.092,-6.146,679.084
11.5,1857.456,104.552,-12.077,-6.18,678.628
11.55,1862.668,103.949,-12.054,-6.214,678.175
11.6,1867.851,103.347,-12.026,-6.248,677.725
11.65,1873.003,102.746,-12.011,-6.281,677.277
11.7,1878.125,102.146,-11.986,-6.314,676.832
11.75,1883.218,101.547,-11.967,-6.347,676.39
11.8,1888.28,100.949,-11.944,-6.38,675.95
11.85,1893.313,100.353,-11.918,-6.413,675.513
11.9,1898.315,99.757,-11.903,-6.446,675.078
11.95,1903.288,99.163,-11.874,-6.478,674.646
12,1908.232,98.57,-11.843,-6.51,674.216
12.05,1913.145,97.978,-11.814,-6.542,673.79
12.1,1918.029,97.389,-11.77,-6.574,673.365
12.15,1922.884,96.801,-11.737,-6.605,672.943
12.2,1927.71,96.215,-11.696,-6.637,672.524
12.25,1932.506,95.632,-11.661,-6.668,672.107
12.3,1937.273,95.049,-11.642,-6.699,671.693
12.35,1942.011,94.467,-11.62,-6.73,671.281
12.4,1946.72,93.887,-11.613,-6.76,670.872
12.45,1951.399,93.307,-11.585,-6.791,670.466
12.5,1956.05,92.728,-11.574,-6.821,670.062
12.55,1960.672,92.149,-11.56,-6.851,669.66
12.6,1965.265,91.572,-11.545,-6.881,669.261
12.65,1969.829,90.995,-11.517,-6.91,668.864
12.7,1974.365,90.42,-11.497,-6.94,668.47
12.75,1978.871,89.845,-11.484,-6.969,668.079
12.8,1983.349,89.272,-11.44,-6.998,667.69
12.85,1987.799,88.701,-11.422,-7.027,667.303
12.9,1992.219,88.13,-11.414,-7.056,666.919
12.95,1996.612,87.56,-11.382,-7.084,666.537
13,2000.975,86.991,-11.367,-7.113,666.158
13.05,2005.311,86.424,-11.334,-7.141,665.781
13.1,2009.618,85.858,-11.299,-7.169,665.407
13.15,2013.896,85.294,-11.272,-7.197,665.035
13.2,2018.147,84.731,-11.245,-7.224,664.666
13.25,2022.37,84.169,-11.214,-7.252,664.299
13.3,2026.564,83.609,-11.198,-7.279,663.935
13.35,2030.73,83.05,-11.169,-7.306,663.573
13.4,2034.869,82.492,-11.152,-7.333,663.213
13.45,2038.98,81.935,-11.135,-7.36,662.856
13.5,2043.062,81.378,-11.121,-7.386,662.501
13.55,2047.117,80.822,-11.12,-7.413,662.149
13.6,2051.145,80.267,-11.104,-7.439,661.799
13.65,2055.144,79.711,-11.113,-7.465,661.451
13.7,2059.116,79.156,-11.102,-7.491,661.106
13.75,2063.06,78.601,-11.091,-7.516,660.764
13.8,2066.976,78.046,-11.083,-7.542,660.423
13.85,2070.864,77.492,-11.078,-7.567,660.085
13.9,2074.725,76.939,-11.062,-7.592,659.75
13.95,2078.558,76.387,-11.018,-7.617,659.417
14,2082.364,75.837,-10.981,-7.642,659.086
14.05,2086.142,75.288,-10.956,-7.666,658.758
14.1,2089.893,74.742,-10.922,-7.691,658.432
14.15,2093.616,74.196,-10.899,-7.715,658.109
14.2,2097.312,73.651,-10.889,-7.739,657.787
14.25,2100.981,73.107,-10.867,-7.763,657.477
14.3,2104.623,72.565,-10.843,-7.787,657.177
14.35,2108.238,72.023,-10.828,-7.81,656.879
14.4,2111.825,71.482,-10.807,-7.833,656.583
14.45,2115.386,70.942,-10.789,-7.857,656.289
14.5,2118.92,70.403,-10.77,-7.879,655.998
14.55,2122.426,69.865,-10.76,-7.902,655.709
14.6,2125.906,69.327,-10.757,-7.925,655.422
14.65,2129.359,68.79,-10.743,-7.947,655.137
14.7,2132.785,68.253,-10.732,-7.97,654.854
14.75,2136.184,67.716,-10.723,-7.992,654.574
14.8,2139.557,67.181,-10.699,-8.014,654.296
14.85,2142.902,66.646,-10.689,-8.035,654.02
14.9,2146.221,66.112,-10.676,-8.057,653.746
14.95,2149.514,65.579,-10.654,-8.078,653.475
15,2152.779,65.046,-10.641,-8.1,653.205
15.05,2156.018,64.515,-10.629,-8.121,652.938
15.1,2159.231,63.984,-10.616,-8.142,652.673
15.15,2162.417,63.453,-10.593,-8.162,652.41
15.2,2165.576,62.924,-10.598,-8.183,652.15
15.25,2168.709,62.394,-10.583,-8.203,651.891
15.3,2171.816,61.865,-10.565,-8.223,651.635
15.35,2174.896,61.337,-10.567,-8.243,651.381
15.4,2177.949,60.809,-10.553,-8.263,651.129
15.45,2180.977,60.282,-10.54,-8.283,650.88
15.5,2183.977,59.755,-10.521,-8.302,650.632
15.55,2186.952,59.229,-10.517,-8.322,650.387
15.6,2189.9,58.704,-10.49,-8.341,650.144
15.65,2192.822,58.18,-10.475,-8.36,649.903
15.7,2195.718,57.656,-10.47,-8.379,649.664
15.75,2198.588,57.133,-10.451,-8.397,649.427
15.8,2201.432,56.611,-10.44,-8.416,649.193
15.85,2204.249,56.089,-10.432,-8.434,648.96
15.9,2207.041,55.568,-10.416,-8.452,648.73
15.95,2209.806,55.047,-10.409,-8.47,648.502
16,2212.545,54.527,-10.394,-8.488,648.276
16.05,2215.259,54.008,-10.367,-8.506,648.052
16.1,2217.946,53.491,-10.343,-8.523,647.83
16.15,2220.608,52.974,-10.33,-8.54,647.611
16.2,2223.244,52.457,-10.325,-8.558,647.394
16.25,2225.854,51.941,-10.323,-8.575,647.178
16.3,2228.438,51.425,-10.315,-8.591,646.965
16.35,2230.996,50.91,-10.296,-8.608,646.754
16.4,2233.529,50.395,-10.288,-8.624,646.545
16.45,2236.036,49.881,-10.276,-8.641,646.338
16.5,2238.517,49.367,-10.275,-8.657,646.134
16.55,2240.972,48.854,-10.268,-8.673,645.931
16.6,2243.402,48.341,-10.254,-8.689,645.731
16.65,2245.807,47.828,-10.248,-8.704,645.533
16.7,2248.185,47.316,-10.241,-8.72,645.336
16.75,2250.538,46.805,-10.223,-8.735,645.142
16.8,2252.866,46.293,-10.218,-8.75,644.95
16.85,2255.167,45.783,-10.203,-8.765,644.761
16.9,2257.444,45.273,-10.2,-8.78,644.573
16.95,2259.695,44.763,-10.196,-8.795,644.387
17,2261.92,44.253,-10.189,-8.809,644.204
17.05,2264.12,43.744,-10.19,-8.823,644.022
17.1,2266.295,43.235,-10.176,-8.837,643.843
17.15,2268.444,42.726,-10.172,-8.851,643.666
17.2,2270.567,42.218,-10.169,-8.865,643.49
17.25,2272.665,41.709,-10.166,-8.879,643.317
17.3,2274.738,41.201,-10.153,-8.892,643.146
17.35,2276.785,40.694,-10.146,-8.906,642.978
17.4,2278.807,40.186,-10.144,-8.919,642.811
17.45,2280.804,39.68,-10.119,-8.932,642.646
17.5,2282.775,39.174,-10.118,-8.945,642.484
17.55,2284.722,38.668,-10.103,-8.957,642.323
17.6,2286.642,38.164,-10.09,-8.97,642.165
17.65,2288.538,37.659,-10.078,-8.982,642.008
17.7,2290.408,37.156,-10.059,-8.994,641.854
17.75,2292.254,36.653,-10.057,-9.006,641.702
17.8,2294.074,36.151,-10.042,-9.018,641.552
17.85,2295.869,35.649,-10.02,-9.03,641.404
17.9,2297.639,35.148,-10.01,-9.041,641.258
17.95,2299.383,34.648,-10.004,-9.052,641.114
18,2301.103,34.148,-9.994,-9.064,640.972
18.05,2302.798,33.649,-9.979,-9.075,640.832
18.1,2304.468,33.15,-9.975,-9.086,640.694
18.15,2306.113,32.651,-9.97,-9.096,640.559
18.2,2307.733,32.153,-9.966,-9.107,640.425
18.25,2309.329,31.655,-9.967,-9.117,640.294
18.3,2310.899,31.156,-9.964,-9.127,640.164
18.35,2312.444,30.658,-9.964,-9.137,640.037
18.4,2313.965,30.16,-9.957,-9.147,639.911
18.45,2315.46,29.662,-9.948,-9.157,639.788
18.5,2316.931,29.165,-9.954,-9.167,639.666
18.55,2318.377,28.667,-9.95,-9.176,639.547
18.6,2319.798,28.17,-9.958,-9.185,639.43
18.65,2321.194,27.672,-9.953,-9.194,639.315
18.7,2322.565,27.174,-9.943,-9.203,639.202
18.75,2323.911,26.677,-9.937,-9.212,639.091
18.8,2325.232,26.181,-9.937,-9.221,638.982
18.85,2326.529,25.684,-9.937,-9.229,638.875
18.9,2327.801,25.187,-9.936,-9.237,638.77
18.95,2329.048,24.69,-9.93,-9.245,638.667
19,2330.27,24.194,-9.932,-9.253,638.566
19.05,2331.467,23.697,-9.933,-9.261,638.468
19.1,2332.64,23.201,-9.923,-9.269,638.371
19.15,2333.787,22.705,-9.904,-9.276,638.276
19.2,2334.91,22.21,-9.899,-9.283,638.184
19.25,2336.008,21.715,-9.893,-9.291,638.093
19.3,2337.082,21.221,-9.884,-9.298,638.005
19.35,2338.13,20.727,-9.872,-9.304,637.918
19.4,2339.154,20.233,-9.868,-9.311,637.834
19.45,2340.154,19.74,-9.856,-9.317,637.751
19.5,2341.128,19.247,-9.854,-9.324,637.671
19.55,2342.078,18.755,-9.835,-9.33,637.592
19.6,2343.004,18.263,-9.833,-9.336,637.516
19.65,2343.905,17.772,-9.807,-9.342,637.442
19.7,2344.781,17.282,-9.8,-9.348,637.369
19.75,2345.633,16.793,-9.786,-9.353,637.299
19.8,2346.46,16.304,-9.776,-9.358,637.231
19.85,2347.263,15.815,-9.76,-9.364,637.165
19.9,2348.042,15.327,-9.763,-9.369,637.101
19.95,2348.796,14.839,-9.749,-9.374,637.038
20,2349.526,14.352,-9.746,-9.378,636.978
20.05,2350.231,13.865,-9.736,-9.383,636.92
20.1,2350.912,13.378,-9.722,-9.387,636.864
20.15,2351.569,12.892,-9.721,-9.392,636.81
20.2,2352.202,12.406,-9.722,-9.396,636.757
20.25,2352.81,11.92,-9.726,-9.4,636.707
20.3,2353.394,11.434,-9.718,-9.404,636.659
20.35,2353.953,10.948,-9.713,-9.407,636.613
20.4,2354.488,10.463,-9.71,-9.411,636.569
20.45,2354.999,9.977,-9.706,-9.414,636.527
20.5,2355.486,9.492,-9.696,-9.417,636.487
20.55,2355.949,9.007,-9.689,-9.42,636.448
20.6,2356.387,8.523,-9.678,-9.423,636.412
20.65,2356.801,8.04,-9.668,-9.426,636.378
20.7,2357.191,7.556,-9.669,-9.428,636.346
20.75,2357.557,7.073,-9.66,-9.431,636.316
20.8,2357.898,6.591,-9.638,-9.433,636.288
20.85,2358.216,6.109,-9.604,-9.435,636.261
20.9,2358.509,5.63,-9.587,-9.437,636.237
20.95,2358.779,5.151,-9.551,-9.439,636.215
21,2359.024,4.674,-9.543,-9.44,636.195
21.05,2359.246,4.197,-9.53,-9.442,636.176
21.1,2359.444,3.721,-9.514,-9.443,636.16
21.15,2359.618,3.246,-9.477,-9.444,636.146
21.2,2359.769,2.773,-9.465,-9.445,636.133
21.25,2359.895,2.3,-9.456,-9.446,636.123
21.3,2359.999,1.828,-9.424,-9.446,636.114
21.35,2360.078,1.357,-9.411,-9.447,636.108
21.4,2360.134,0.887,-9.391,-9.447,636.103
21.45,2360.167,0.418,-9.36,-9.448,636.101
# Event APOGEE occurred at t=21.5 seconds
21.5,2360.176,-0.05,-9.346,-9.448,636.1
21.55,2360.162,-0.516,-9.315,-9.448,636.101
21.6,2360.124,-0.983,-9.522,-9.447,636.104
21.65,2360.063,-1.459,-9.493,-9.447,636.109
21.7,2359.979,-1.933,-9.49,-9.446,636.116
21.75,2359.87,-2.407,-9.459,-9.446,636.125
21.8,2359.738,-2.879,-9.439,-9.445,636.136
21.85,2359.582,-3.35,-9.402,-9.444,636.149
21.9,2359.403,-3.82,-9.38,-9.443,636.164
21.95,2359.2,-4.289,-9.364,-9.441,636.18
22,2358.974,-4.755,-9.301,-9.44,636.199
22.05,2358.725,-5.219,-9.246,-9.438,636.219
